EC-Lab ASCII FILE
Nb header lines : 6

Technique : Galvanostatic Cycling with Potential Limitation
Cell: LFP 18650, 25 °C
mode	ox/red	error	cycle number	time/s	Ewe/V	<I>/mA	Q discharge/mA.h	Q charge/mA.h
1	1	0	9,000000000000000E+00	10	2,00000	550,0	0	0,000000
1	1	0	9,000000000000000E+00	20	2,14545	550,0	0	95,455000
1	1	0	9,000000000000000E+00	30	2,29091	550,0	0	190,909000
1	1	0	9,000000000000000E+00	40	2,43636	550,0	0	286,364000
1	1	0	9,000000000000000E+00	50	2,58182	550,0	0	381,818000
1	1	0	9,000000000000000E+00	60	2,72727	550,0	0	477,273000
1	1	0	9,000000000000000E+00	70	2,87273	550,0	0	572,727000
1	1	0	9,000000000000000E+00	80	3,01818	550,0	0	668,182000
1	1	0	9,000000000000000E+00	90	3,16364	550,0	0	763,636000
1	1	0	9,000000000000000E+00	100	3,30909	550,0	0	859,091000
1	1	0	9,000000000000000E+00	110	3,45455	550,0	0	954,545000
1	1	0	9,000000000000000E+00	120	3,60000	550,0	0	1050,000000
1	0	0	9,000000000000000E+00	130	3,45000	0	0	0
1	0	0	9,000000000000000E+00	140	3,45000	0	0	0
1	0	0	9,000000000000000E+00	150	3,45000	0	0	0
1	0	0	9,000000000000000E+00	160	3,28600	-1100,0	36,000000	0
1	0	0	9,000000000000000E+00	170	3,26900	-1100,0	73,000000	0
1	0	0	9,000000000000000E+00	180	3,26300	-1100,0	110,000000	0
1	0	0	9,000000000000000E+00	190	3,25700	-1100,0	146,000000	0
1	0	0	9,000000000000000E+00	200	3,25200	-1100,0	183,000000	0
1	0	0	9,000000000000000E+00	210	3,24700	-1100,0	220,000000	0
1	0	0	9,000000000000000E+00	220	3,24100	-1100,0	256,000000	0
1	0	0	9,000000000000000E+00	230	3,23500	-1100,0	293,000000	0
1	0	0	9,000000000000000E+00	240	3,23000	-1100,0	330,000000	0
1	0	0	9,000000000000000E+00	250	3,22600	-1100,0	366,000000	0
1	0	0	9,000000000000000E+00	260	3,22100	-1100,0	403,000000	0
1	0	0	9,000000000000000E+00	270	3,21800	-1100,0	440,000000	0
1	0	0	9,000000000000000E+00	280	3,21300	-1100,0	476,000000	0
1	0	0	9,000000000000000E+00	290	3,20900	-1100,0	513,000000	0
1	0	0	9,000000000000000E+00	300	3,20500	-1100,0	550,000000	0
1	0	0	9,000000000000000E+00	310	3,19900	-1100,0	586,000000	0
1	0	0	9,000000000000000E+00	320	3,19400	-1100,0	623,000000	0
1	0	0	9,000000000000000E+00	330	3,18700	-1100,0	660,000000	0
1	0	0	9,000000000000000E+00	340	3,18000	-1100,0	696,000000	0
1	0	0	9,000000000000000E+00	350	3,17100	-1100,0	733,000000	0
1	0	0	9,000000000000000E+00	360	3,16100	-1100,0	770,000000	0
1	0	0	9,000000000000000E+00	370	3,14900	-1100,0	806,000000	0
1	0	0	9,000000000000000E+00	380	3,13500	-1100,0	843,000000	0
1	0	0	9,000000000000000E+00	390	3,12000	-1100,0	880,000000	0
1	0	0	9,000000000000000E+00	400	3,10000	-1100,0	916,000000	0
1	0	0	9,000000000000000E+00	410	3,05900	-1100,0	953,000000	0
1	0	0	9,000000000000000E+00	420	2,93400	-1100,0	990,000000	0
1	0	0	9,000000000000000E+00	430	2,54700	-1100,0	1026,000000	0
1	0	0	9,000000000000000E+00	440	1,99400	-1100,0	1032,000000	0
1	1	0	9,900000000000000E+01	450	2,00000	550,0	0	0,000000
1	1	0	9,900000000000000E+01	460	2,14545	550,0	0	95,455000
1	1	0	9,900000000000000E+01	470	2,29091	550,0	0	190,909000
1	1	0	9,900000000000000E+01	480	2,43636	550,0	0	286,364000
1	1	0	9,900000000000000E+01	490	2,58182	550,0	0	381,818000
1	1	0	9,900000000000000E+01	500	2,72727	550,0	0	477,273000
1	1	0	9,900000000000000E+01	510	2,87273	550,0	0	572,727000
1	1	0	9,900000000000000E+01	520	3,01818	550,0	0	668,182000
1	1	0	9,900000000000000E+01	530	3,16364	550,0	0	763,636000
1	1	0	9,900000000000000E+01	540	3,30909	550,0	0	859,091000
1	1	0	9,900000000000000E+01	550	3,45455	550,0	0	954,545000
1	1	0	9,900000000000000E+01	560	3,60000	550,0	0	1050,000000
1	0	0	9,900000000000000E+01	570	3,45000	0	0	0
1	0	0	9,900000000000000E+01	580	3,45000	0	0	0
1	0	0	9,900000000000000E+01	590	3,45000	0	0	0
1	0	0	9,900000000000000E+01	600	3,28600	-1100,0	36,000000	0
1	0	0	9,900000000000000E+01	610	3,27000	-1100,0	73,000000	0
1	0	0	9,900000000000000E+01	620	3,26400	-1100,0	109,000000	0
1	0	0	9,900000000000000E+01	630	3,25800	-1100,0	146,000000	0
1	0	0	9,900000000000000E+01	640	3,25300	-1100,0	183,000000	0
1	0	0	9,900000000000000E+01	650	3,24700	-1100,0	220,000000	0
1	0	0	9,900000000000000E+01	660	3,24100	-1100,0	256,000000	0
1	0	0	9,900000000000000E+01	670	3,23500	-1100,0	293,000000	0
1	0	0	9,900000000000000E+01	680	3,23000	-1100,0	330,000000	0
1	0	0	9,900000000000000E+01	690	3,22600	-1100,0	366,000000	0
1	0	0	9,900000000000000E+01	700	3,22200	-1100,0	403,000000	0
1	0	0	9,900000000000000E+01	710	3,21800	-1100,0	440,000000	0
1	0	0	9,900000000000000E+01	720	3,21300	-1100,0	476,000000	0
1	0	0	9,900000000000000E+01	730	3,20900	-1100,0	513,000000	0
1	0	0	9,900000000000000E+01	740	3,20400	-1100,0	550,000000	0
1	0	0	9,900000000000000E+01	750	3,19900	-1100,0	586,000000	0
1	0	0	9,900000000000000E+01	760	3,19400	-1100,0	623,000000	0
1	0	0	9,900000000000000E+01	770	3,18700	-1100,0	660,000000	0
1	0	0	9,900000000000000E+01	780	3,18000	-1100,0	696,000000	0
1	0	0	9,900000000000000E+01	790	3,17100	-1100,0	733,000000	0
1	0	0	9,900000000000000E+01	800	3,16100	-1100,0	770,000000	0
1	0	0	9,900000000000000E+01	810	3,14800	-1100,0	806,000000	0
1	0	0	9,900000000000000E+01	820	3,13400	-1100,0	843,000000	0
1	0	0	9,900000000000000E+01	830	3,11800	-1100,0	880,000000	0
1	0	0	9,900000000000000E+01	840	3,09800	-1100,0	916,000000	0
1	0	0	9,900000000000000E+01	850	3,05200	-1100,0	953,000000	0
1	0	0	9,900000000000000E+01	860	2,91600	-1100,0	990,000000	0
1	0	0	9,900000000000000E+01	870	2,41000	-1100,0	1026,000000	0
1	0	0	9,900000000000000E+01	880	1,99200	-1100,0	1029,000000	0
